Wavelength,spec
380,0.453925573
381,0.441890445
382,0.429818188
383,0.41771776
384,0.405598344
385,0.39346934
386,0.381340352
387,0.369221179
388,0.357121802
389,0.34505237
390,0.333023189
391,0.32104471
392,0.309127509
393,0.297282277
394,0.285519805
395,0.273850963
396,0.262286691
397,0.250837977
398,0.239515843
399,0.228331326
400,0.217295462
401,0.206419266
402,0.195713717
403,0.185189738
404,0.174858176
405,0.164729789
406,0.154815219
407,0.145124983
408,0.135669448
409,0.126458814
410,0.117503097
411,0.108812111
412,0.100395449
413,0.092262465
414,0.084422257
415,0.076883654
416,0.069655192
417,0.062745104
418,0.056161304
419,0.049911366
420,0.044002518
421,0.038441622
422,0.033235162
423,0.028389233
424,0.023909528
425,0.019801327
426,0.016069486
427,0.012718428
428,0.009752136
429,0.007174142
430,0.004987521
431,0.003194885
432,0.001798381
433,0.00079968
434,0.00019998
435,0
436,0.00019998
437,0.00079968
438,0.001798381
439,0.003194885
440,0.004987521
441,0.007174142
442,0.009752136
443,0.012718428
444,0.016069486
445,0.019801327
446,0.023909528
447,0.028389233
448,0.033235162
449,0.038441622
450,0.044002518
451,0.049911366
452,0.056161304
453,0.062745104
454,0.069655192
455,0.076883654
456,0.084422257
457,0.092262465
458,0.100395449
459,0.108812111
460,0.117503097
461,0.126458814
462,0.135669448
463,0.145124983
464,0.154815219
465,0.164729789
466,0.174858176
467,0.185189738
468,0.195713717
469,0.206419266
470,0.217295462
471,0.228331326
472,0.239515843
473,0.250837977
474,0.262286691
475,0.273850963
476,0.285519805
477,0.297282277
478,0.309127509
479,0.32104471
480,0.333023189
481,0.34505237
482,0.357121802
483,0.369221179
484,0.381340352
485,0.39346934
486,0.405598344
487,0.41771776
488,0.429818188
489,0.441890445
490,0.453925573
491,0.465914852
492,0.477849804
493,0.489722202
494,0.501524082
495,0.513247744
496,0.524885761
497,0.536430983
498,0.547876542
499,0.559215859
500,0.570442642
501,0.581550891
502,0.592534902
503,0.603389267
504,0.614108872
505,0.624688901
506,0.635124836
507,0.645412451
508,0.655547817
509,0.665527294
510,0.675347533
511,0.685005468
512,0.69449832
513,0.703823583
514,0.71297903
515,0.7219627
516,0.730772895
517,0.739408179
518,0.747867365
519,0.756149513
520,0.764253923
521,0.772180129
522,0.779927887
523,0.787497176
524,0.794888183
525,0.802101301
526,0.809137117
527,0.815996408
528,0.82268013
529,0.82918941
530,0.835525543
531,0.841689977
532,0.847684309
533,0.853510277
534,0.859169748
535,0.864664717
536,0.869997292
537,0.875169692
538,0.880184234
539,0.88504333
540,0.889749475
541,0.894305244
542,0.898713283
543,0.9029763
544,0.907097061
545,0.911078383
546,0.914923123
547,0.91863418
548,0.922214481
549,0.925666979
550,0.928994646
551,0.932200469
552,0.935287442
553,0.938258564
554,0.941116832
555,0.943865237
556,0.946506761
557,0.949044369
558,0.951481009
559,0.953819609
560,0.956063066
561,0.958214254
562,0.96027601
563,0.96225114
564,0.964142409
565,0.965952545
566,0.967684232
567,0.96934011
568,0.970922773
569,0.972434768
570,0.97387859
571,0.975256687
572,0.976571452
573,0.977825227
574,0.979020301
575,0.980158905
576,0.98124322
577,0.982275369
578,0.983257418
579,0.984191381
580,0.985079214
581,0.985922817
582,0.986724035
583,0.987484658
584,0.98820642
585,0.988891003
586,0.989540033
587,0.990155083
588,0.990737673
589,0.991289273
590,0.991811299
591,0.992305119
592,0.992772051
593,0.993213365
594,0.993630281
595,0.994023977
596,0.994395582
597,0.994746181
598,0.995076817
599,0.99538849
600,0.99568216
601,0.995958745
602,0.996219126
603,0.996464144
604,0.996694607
605,0.996911285
606,0.997114912
607,0.997306193
608,0.997485798
609,0.997654367
610,0.997812509
611,0.997960805
612,0.998099807
613,0.998230043
614,0.998352012
615,0.998466189
616,0.998573027
617,0.998672954
618,0.998766377
619,0.998853682
620,0.998935234
621,0.999011379
622,0.999082447
623,0.999148746
624,0.99921057
625,0.999268198
626,0.999321889
627,0.999371893
628,0.999418442
629,0.999461757
630,0.999502045
631,0.999539501
632,0.99957431
633,0.999606646
634,0.99963667
635,0.999664537
636,0.999690391
637,0.999714366
638,0.99973659
639,0.999757182
640,0.999776254
641,0.99979391
642,0.999810249
643,0.999825363
644,0.999839337
645,0.999852252
646,0.999864183
647,0.9998752
648,0.99988537
649,0.999894753
650,1.00E+00
651,1.00E+00
652,1.00E+00
653,1.00E+00
654,1.00E+00
655,1.00E+00
656,1.00E+00
657,1.00E+00
658,1.00E+00
659,1.00E+00
660,1.00E+00
661,1.00E+00
662,1.00E+00
663,1.00E+00
664,1.00E+00
665,1.00E+00
666,1.00E+00
667,1.00E+00
668,1.00E+00
669,1.00E+00
670,1.00E+00
671,1.00E+00
672,1.00E+00
673,1.00E+00
674,1.00E+00
675,1.00E+00
676,1.00E+00
677,1.00E+00
678,1.00E+00
679,1.00E+00
680,1.00E+00
681,1.00E+00
682,1.00E+00
683,1.00E+00
684,1.00E+00
685,1.00E+00
686,1.00E+00
687,1.00E+00
688,1.00E+00
689,1.00E+00
690,1.00E+00
691,1.00E+00
692,1.00E+00
693,1.00E+00
694,1.00E+00
695,1.00E+00
696,1.00E+00
697,1.00E+00
698,1.00E+00
699,1.00E+00
700,1.00E+00
701,1.00E+00
702,1.00E+00
703,1.00E+00
704,1.00E+00
705,1.00E+00
706,1.00E+00
707,1.00E+00
708,1.00E+00
709,1.00E+00
710,1.00E+00
711,1.00E+00
712,1.00E+00
713,1.00E+00
714,1.00E+00
715,1.00E+00
716,1.00E+00
717,1.00E+00
718,1.00E+00
719,1.00E+00
720,1.00E+00
721,1.00E+00
722,1.00E+00
723,1.00E+00
724,1.00E+00
725,1.00E+00
726,1.00E+00
727,1.00E+00
728,1.00E+00
729,1.00E+00
730,1.00E+00
731,1.00E+00
732,1.00E+00
733,1.00E+00
734,1.00E+00
735,1.00E+00
736,1.00E+00
737,1.00E+00
738,1.00E+00
739,1.00E+00
740,1.00E+00
741,1.00E+00
742,1.00E+00
743,1.00E+00
744,1.00E+00
745,1.00E+00
746,1.00E+00
747,1.00E+00
748,1.00E+00
749,1.00E+00
750,1.00E+00
751,1.00E+00
752,1.00E+00
753,1.00E+00
754,1.00E+00
755,1.00E+00
756,1.00E+00
757,1.00E+00
758,1.00E+00
759,1.00E+00
760,1.00E+00
761,1.00E+00
762,1.00E+00
763,1.00E+00
764,1.00E+00
765,1.00E+00
766,1.00E+00
767,1.00E+00
768,1.00E+00
769,1.00E+00
770,1.00E+00
771,1.00E+00
772,1.00E+00
773,1.00E+00
774,1.00E+00
775,1.00E+00
776,1.00E+00
777,1.00E+00
778,1.00E+00
779,1.00E+00
780,1.00E+00
